0. -2.399825114283566
0.008 -2.399869032287971
0.016 -2.399913765577977
0.024 -2.3999593292654957
0.032 -2.4000057387416875
0.04 -2.4000530096820962
0.048 -2.4001011580518674
0.056 -2.4001502001110615
0.064 -2.40020015242007
0.072 -2.4002510318451225
0.08 -2.4003028555638983
0.088 -2.400355641071236
0.096 -2.400409406184948
0.104 -2.400464169051741
0.112 -2.400519948153241
0.12 -2.400576762312129
0.128 -2.4006346306983866
0.136 -2.4006935728356527
0.144 -2.4007536086076993
0.152 -2.4008147582650166
0.16 -2.400877042431525
0.168 -2.4009404821114
0.176 -2.401005098696026
0.184 -2.4010709139710693
0.192 -2.401137950123684
0.2 -2.401206229749842
0.208 -2.401275775861797
0.216 -2.4013466118956828
0.224 -2.401418761719242
0.232 -2.4014922496397033
0.24 -2.40156710041179
0.248 -2.4016433392458745
0.256 -2.4017209918162807
0.264 -2.4018000842697305
0.272 -2.401880643233945
0.28 -2.401962695826393
0.288 -2.4020462696632046
0.296 -2.402131392868229
0.304 -2.4022180940822677
0.312 -2.4023064024724627
0.32 -2.4023963477418513
0.328 -2.402487960139097
0.336 -2.402581270468383
0.344 -2.402676310099486
0.352 -2.4027731109780284
0.36 -2.4028717056359086
0.368 -2.4029721272019158
0.376 -2.4030744094125343
0.384 -2.403178586622932
0.392 -2.403284693818147
0.4 -2.4033927666244703
0.408 -2.4035028413210218
0.416 -2.4036149548515375
0.424 -2.403729144836358
0.432 -2.403845449584623
0.44 -2.403963908106688
0.448 -2.4040845601267464
0.456 -2.4042074460956795
0.464 -2.404332607204125
0.472 -2.404460085395772
0.48 -2.404589923380892
0.488 -2.4047221646500945
0.496 -2.4048568534883294
0.504 -2.4049940349891252
0.512 -2.405133755069075
0.52 -2.4052760604825685
0.528 -2.405420998836782
0.536 -2.405568618606921
0.544 -2.405718969151724
0.552 -2.405872100729236
0.56 -2.4060280645128422
0.568 -2.406186912607585
0.576 -2.406348698066749
0.584 -2.4065134749087327
0.592 -2.406681298134207
0.6 -2.4068522237435577
0.608 -2.4070263087546304
0.616 -2.407203611220767
0.624 -2.4073841902491457
0.632 -2.407568106019439
0.64 -2.4077554198027658
0.648 -2.4079461939809788
0.656 -2.408140492066258
0.664 -2.408338378721041
0.672 -2.4085399197782764
0.68 -2.4087451822620167
0.688 -2.4089542344083497
0.696 -2.409167145686674
0.704 -2.4093839868213234
0.712 -2.40960482981355
0.72 -2.4098297479638604
0.728 -2.410058815894719
0.736 -2.4102921095736223
0.744 -2.4105297063365425
0.752 -2.410771684911753
0.76 -2.411018125444039
0.768 -2.4112691095192935
0.776 -2.4115247201895067
0.784 -2.411785041998164
0.792 -2.4120501610060314
0.8 -2.412320164817366
0.808 -2.4125951426065324
0.816 -2.4128751851450385
0.824 -2.413160384828998
0.832 -2.413450835707022
0.84 -2.4137466335085445
0.848 -2.4140478756725887
0.856 -2.4143546613769735
0.864 -2.4146670915679773
0.872 -2.414985268990453
0.88 -2.415309298218398
0.888 -2.4156392856859985
0.896 -2.4159753397191346
0.904 -2.4163175705673687
0.912 -2.4166660904364057
0.92 -2.417021013521041
0.928 -2.4173824560386
0.936 -2.4177505362628704
0.944 -2.4181253745585285
0.952 -2.4185070934160753
0.96 -2.418895817487279
0.968 -2.419291673621129
0.976 -2.4196947909003033
0.984 -2.420105300678165
0.992 -2.4205233366162773
1. -2.420949034722451
1.0079999999999998 -2.421382533389324
1.016 -2.4218239734334794
1.024 -2.4222734981351053
1.0319999999999998 -2.422731253278195
1.0399999999999998 -2.4231973871913017
1.0479999999999998 -2.4236720507888374
1.0559999999999998 -2.4241553976129344
1.0639999999999998 -2.424647583875857
1.0719999999999998 -2.425148768502978
1.0799999999999998 -2.4256591131763146
1.0879999999999996 -2.426178782378633
1.0959999999999999 -2.4267079434381187
1.1039999999999999 -2.427246766573617
1.1119999999999999 -2.427795424940439
1.1199999999999999 -2.4283540946767506
1.1279999999999997 -2.4289229549505245
1.136 -2.4295021880070737
1.1439999999999997 -2.4300919792171554
1.152 -2.4306925171256535
1.16 -2.4313039935008325
1.1679999999999997 -2.431926603384171
1.176 -2.432560545140767
1.1839999999999997 -2.4332060205103114
1.192 -2.433863234658644
1.2 -2.434532396229866
1.2079999999999997 -2.435213717399029
1.2159999999999997 -2.4359074139253867
1.2239999999999998 -2.4366137052062027
1.232 -2.437332814331122
1.2399999999999998 -2.4380649681370925
1.2479999999999998 -2.438810397263835
1.256 -2.4395693362098574
1.2639999999999998 -2.4403420233890065
1.2719999999999998 -2.4411287011875493
1.2799999999999998 -2.441929616021778
1.2879999999999998 -2.442745018396135
1.2959999999999998 -2.4435751629618414
1.3039999999999998 -2.444420308576028
1.3119999999999998 -2.445280718361353
1.3199999999999998 -2.4461566597661
1.3279999999999998 -2.4470484046247454
1.3359999999999999 -2.4479562292189785
1.3439999999999996 -2.4488804143391687
1.3519999999999999 -2.449821245346258
1.3599999999999997 -2.450779012234073
1.3679999999999999 -2.451754009692037
1.376 -2.4527465371682604
1.384 -2.4537568989330047
1.392 -2.4547854041424926
1.3999999999999997 -2.4558323669030453
1.408 -2.456898106335534
1.4159999999999997 -2.4579829466401164
1.4239999999999997 -2.459087217161238
1.4319999999999997 -2.4602112524528805
1.4399999999999997 -2.461355392344025
1.4479999999999997 -2.462519982004308
1.4559999999999997 -2.4637053720098416
1.4639999999999997 -2.4649119184091735
1.4719999999999998 -2.466139982789353
1.4799999999999998 -2.467389932342073
1.4879999999999998 -2.468662139929856
1.4959999999999998 -2.4699569841522537
1.5039999999999998 -2.4712748494120214
1.5119999999999998 -2.4726161259812285
1.5199999999999998 -2.4739812100672762
1.5279999999999998 -2.4753705038787714
1.5359999999999998 -2.4767844156912266
1.5439999999999998 -2.4782233599125325
1.5519999999999998 -2.479687757148171
1.5599999999999998 -2.481178034266111
1.5679999999999998 -2.4826946244613466
1.5759999999999996 -2.4842379673200274
1.5839999999999996 -2.4858085088831263
1.5919999999999996 -2.4874067017095984
1.5999999999999996 -2.4890330049389675
1.6079999999999997 -2.4906878843532936
1.6159999999999997 -2.4923718124384524
1.6239999999999999 -2.4940852684446795
1.6319999999999997 -2.4958287384463
1.64 -2.497602715400601
1.6479999999999997 -2.499407699205757
1.6559999999999997 -2.5012441967577597
1.6639999999999997 -2.5031127220062714
1.6719999999999997 -2.505013796009336
1.6799999999999997 -2.5069479469868647
1.6879999999999997 -2.5089157103728303
1.6959999999999995 -2.510917628866084
1.7039999999999997 -2.512954252479723
1.7119999999999997 -2.5150261385889126
1.7199999999999998 -2.517133851977093
1.7279999999999998 -2.5192779648804757
1.7359999999999998 -2.5214590570307407
1.7439999999999996 -2.5236777156958476
1.7519999999999996 -2.5259345357188665
1.7599999999999998 -2.5282301195547308
1.7679999999999998 -2.5305650773048165
1.7759999999999996 -2.5329400267492517
1.7839999999999998 -2.535355593376851
1.7919999999999998 -2.537812410412574
1.8 -2.540311118842402
1.8079999999999996 -2.5428523674355303
1.8159999999999998 -2.545436812763755
1.8239999999999996 -2.548065119217961
1.8319999999999996 -2.550737959021588
1.8399999999999999 -2.553456012240957
1.8479999999999996 -2.5562199667923533
1.8559999999999997 -2.559030518445742
1.8639999999999999 -2.5618883708249944
1.8719999999999999 -2.5647942354045132
1.8799999999999997 -2.5677488315021253
1.8879999999999997 -2.570752886268129
1.896 -2.5738071346703664
1.9039999999999997 -2.576912319475198
1.9119999999999997 -2.580069191224249
1.92 -2.5832785082068113
1.9279999999999995 -2.5865410364277635
1.9359999999999997 -2.5898575495708873
1.9439999999999997 -2.593228828957452
1.9519999999999995 -2.596655663499935
1.9599999999999997 -2.6001388496507567
1.9679999999999997 -2.6036791913458948
1.9759999999999995 -2.6072774999432577
1.9839999999999995 -2.6109345941556836
1.9919999999999998 -2.614651299978444
2. -2.6184284506111237
2.0079999999999996 -2.622266886373751
2.0159999999999996 -2.626167454617062
2.024 -2.6301310096267714
2.0319999999999996 -2.6341584125217348
2.0399999999999996 -2.63825053114588
2.048 -2.642408239953801
2.0559999999999996 -2.646632419889895
2.0639999999999996 -2.650923958260935
2.0719999999999996 -2.655283748601975
2.0799999999999996 -2.659712690535483
2.0879999999999996 -2.6642116896236008
2.0959999999999996 -2.6687816572134433
2.1039999999999996 -2.673423510275336
2.1119999999999997 -2.678138171233917
2.1199999999999997 -2.682926567792012
2.1279999999999997 -2.687789632747219
2.1359999999999997 -2.692728303801119
2.1439999999999997 -2.697743523361064
2.1519999999999992 -2.7028362383344717
2.1599999999999997 -2.708007399915589
2.1679999999999997 -2.7132579633646703
2.1759999999999997 -2.718588887779539
2.1839999999999997 -2.724001135859509
2.1919999999999997 -2.729495673661631
2.1999999999999997 -2.7350734703492736
2.2079999999999997 -2.740735497933015
2.2159999999999997 -2.746482731003862
2.2239999999999998 -2.7523161464588126
2.2319999999999993 -2.7582367232187797
2.2399999999999998 -2.764245441938919
2.2479999999999998 -2.7703432847114042
2.2559999999999993 -2.7765312347606965
2.264 -2.782810276131392
2.272 -2.7891813933687084
2.28 -2.7956455711917148
2.2879999999999994 -2.8022037941593907
2.296 -2.8088570463296465
2.304 -2.815606310911406
2.3119999999999994 -2.8224525699099146
2.32 -2.8293968037654067
2.328 -2.836439990985296
2.3359999999999994 -2.8435831077700735
2.3439999999999994 -2.8508271276330928
2.352 -2.8581730210144514
2.3599999999999994 -2.865621754889173
2.3679999999999994 -2.8731742923699337
2.376 -2.8808315923045575
2.384 -2.888594608868544
2.3919999999999995 -2.8964642911528995
2.4 -2.904441582747536
2.408 -2.9125274213205543
2.4159999999999995 -2.920722738193694
2.4239999999999995 -2.9290284579142862
2.432 -2.9374454978240334
2.4399999999999995 -2.945974767624955
2.4479999999999995 -2.9546171689428657
2.456 -2.963373594888742
2.4639999999999995 -2.9722449296183564
2.4719999999999995 -2.9812320478905785
2.4799999999999995 -2.9903358146247245
2.4879999999999995 -2.9995570844573787
2.4959999999999996 -3.0088967012990984
2.5039999999999996 -3.0183554978914335
2.5119999999999996 -3.027934295364689
2.5199999999999996 -3.037633902796882
2.5279999999999996 -3.0474551167743416
2.536 -3.0573987209544025
2.5439999999999996 -3.067465485630664
2.5519999999999996 -3.077656167301275
2.5599999999999996 -3.0879715082407224
2.5679999999999996 -3.098412236075589
2.5759999999999996 -3.108979063364776
2.583999999999999 -3.1196726871846443
2.5919999999999996 -3.1304937887195856
2.5999999999999996 -3.141443032858475
2.6079999999999997 -3.152521067797508
2.6159999999999997 -3.1637285246498887
2.6239999999999997 -3.1750660170628398
2.6319999999999997 -3.1865341408424253
2.6399999999999992 -3.1981334735866325
2.6479999999999997 -3.2098645743271867
2.6559999999999997 -3.2217279831805543
2.6639999999999993 -3.233724221008577
2.6719999999999997 -3.245853789089177
2.6799999999999997 -3.2581171687975754
2.6879999999999993 -3.2705148212984243
2.6959999999999997 -3.28304718724928
2.7039999999999997 -3.2957146865158022
2.7119999999999993 -3.3085177178990683
2.7199999999999993 -3.321456658875376
2.7279999999999998 -3.334531865348879
2.7359999999999998 -3.34774367141741
2.7439999999999993 -3.3610923891518034
2.752 -3.3745783083890286
2.76 -3.3882016965394226
2.7679999999999993 -3.4019627984082965
2.7759999999999994 -3.4158618360321573
2.784 -3.4298990085297842
2.7919999999999994 -3.444074491968372
2.7999999999999994 -3.4583884392449242
2.808 -3.472840979983075
2.8159999999999994 -3.4874322204454793
2.8239999999999994 -3.5021622434618993
2.8319999999999994 -3.5170311083730987
2.8399999999999994 -3.5320388509906055
2.8479999999999994 -3.547185483572427
2.8559999999999994 -3.5624709948147277
2.864 -3.577895349859505
2.8719999999999994 -3.59345849031823
2.8799999999999994 -3.609160334311432
2.888 -3.6250007765241703
2.8959999999999995 -3.6409796882773056
2.9039999999999995 -3.6570969176144783
2.9119999999999995 -3.6733522894046575
2.9199999999999995 -3.6897456054601276
2.9279999999999995 -3.7062766446697313
2.9359999999999995 -3.722945163147183
2.9439999999999995 -3.739750894394256
2.9519999999999995 -3.7566935494785803
2.9599999999999995 -3.7737728172258453
2.9679999999999995 -3.7909883644260898
2.9759999999999995 -3.808339836053828
2.9839999999999995 -3.825826855501693
2.9919999999999995 -3.8434490248272644
3. -3.8612059250127584
3.0079999999999996 -3.879097116237213
3.0159999999999996 -3.897122138160805
3.0239999999999996 -3.9152805102209123
3.0319999999999996 -3.933571731939526
3.0399999999999996 -3.951995283241602
3.0479999999999996 -3.970550624783937
3.0559999999999996 -3.989237198294132
3.0639999999999996 -4.008054426919215
3.0719999999999996 -4.027001715583456
3.0799999999999996 -4.04607845135494
3.0879999999999996 -4.065284003820426
3.095999999999999 -4.084617725468025
3.1039999999999996 -4.104078952077223
3.1119999999999997 -4.123667003115779
3.1199999999999997 -4.143381182143019
3.1279999999999992 -4.163220777219043
3.1359999999999997 -4.183185061319367
3.1439999999999997 -4.2032732927545124
3.1519999999999992 -4.223484715594077
3.1599999999999997 -4.2438185600947955
3.1679999999999997 -4.2642740431321196
3.1759999999999993 -4.284850368634851
3.1839999999999993 -4.305546728022344
3.1919999999999997 -4.326362300643839
3.1999999999999993 -4.347296254219442
3.2079999999999993 -4.368347745282323
3.2159999999999997 -4.389515919621678
3.2239999999999993 -4.410799912726016
3.2319999999999993 -4.432198850226352
3.2399999999999998 -4.453711848338888
3.2479999999999993 -4.475338014306757
3.2559999999999993 -4.49707644684045
3.2639999999999993 -4.518926236556525
3.272 -4.540886466414229
3.2799999999999994 -4.562956212149651
3.2879999999999994 -4.585134542707069
3.296 -4.607420520667127
3.3039999999999994 -4.629813202671539
3.3119999999999994 -4.652311639843965
3.3199999999999994 -4.6749148782067795
3.3279999999999994 -4.697621959093435
3.3359999999999994 -4.720431919556122
3.3439999999999994 -4.743343792768481
3.3519999999999994 -4.766356608423098
3.3599999999999994 -4.789469393123539
3.3679999999999994 -4.812681170770712
3.3759999999999994 -4.83599096294332
3.3839999999999995 -4.8593977892722195
3.3919999999999995 -4.882900667808478
3.3999999999999995 -4.906498615384984
3.4079999999999995 -4.930190647971403
3.4159999999999995 -4.953975781022378
3.423999999999999 -4.977853029818785
3.4319999999999995 -5.00182140980197
3.4399999999999995 -5.025879936900804
3.4479999999999995 -5.050027627851495
3.4559999999999995 -5.074263500510046
3.4639999999999995 -5.098586574157275
3.4719999999999995 -5.122995869796355
3.4799999999999995 -5.147490410442792
3.488 -5.1720692214068045
3.495999999999999 -5.196731330568074
3.503999999999999 -5.22147576864284
3.5119999999999996 -5.246301569443308
3.5199999999999996 -5.271207770129398
3.5279999999999996 -5.296193411452788
3.5359999999999996 -5.321257537993318
3.544 -5.346399198387731
3.551999999999999 -5.371617445550803
3.559999999999999 -5.396911336888888
3.5679999999999996 -5.422279934505925
3.5759999999999996 -5.447722305401954
3.5839999999999996 -5.4732375216642035
3.5919999999999996 -5.498824660650806
3.599999999999999 -5.52448280516721
3.607999999999999 -5.550211043635377
3.615999999999999 -5.576008470255831
3.6239999999999997 -5.601874185162632
3.6319999999999997 -5.627807294571412
3.6399999999999997 -5.653806910920512
3.6479999999999992 -5.679872153005341
3.6559999999999993 -5.706002146106086
3.6639999999999993 -5.7321960221088295
3.6719999999999993 -5.758452919620215
3.6799999999999997 -5.784771984075775
3.6879999999999997 -5.811152367842012
3.6959999999999993 -5.83759323031238
3.7039999999999993 -5.864093737997257
3.7119999999999993 -5.890653064608047
3.7199999999999993 -5.9172703911355375
3.7279999999999998 -5.943944905922615
3.7359999999999998 -5.9706758047314885
3.7439999999999998 -5.997462290805534
3.7519999999999993 -6.024303574925883
3.7599999999999993 -6.0511988754629
3.7679999999999993 -6.078147418422656
3.7759999999999994 -6.105148437488543
3.784 -6.132201174058142
3.792 -6.15930487727549
3.799999999999999 -6.1864588040588595
3.8079999999999994 -6.213662219124177
3.8159999999999994 -6.240914395004226
3.8239999999999994 -6.268214612063735
3.8319999999999994 -6.295562158510489
3.84 -6.322956330402588
3.847999999999999 -6.3503964316519745
3.855999999999999 -6.377881774024347
3.8639999999999994 -6.405411677135584
3.8719999999999994 -6.432985468444801
3.8799999999999994 -6.460602483244142
3.8879999999999995 -6.488262064645447
3.896 -6.515963563563884
3.903999999999999 -6.543706338698672
3.911999999999999 -6.571489756511005
3.9199999999999995 -6.59931319119928
3.9279999999999995 -6.627176024671742
3.9359999999999995 -6.655077646516646
3.9439999999999995 -6.683017453970043
3.951999999999999 -6.710994851881295
3.959999999999999 -6.739009252676396
3.967999999999999 -6.767060076319235
3.9759999999999995 -6.795146750270863
3.9839999999999995 -6.823268709446863
3.9919999999999995 -6.851425396172928
4. -6.879616260138727
