0. -2.3595467774269157
0.008 -2.3595949875128874
0.016 -2.359644092431939
0.024 -2.3596941087655825
0.032 -2.359745053401558
0.04 -2.3597969435394495
0.048 -2.3598497966964014
0.056 -2.3599036307129406
0.064 -2.3599584637589053
0.072 -2.360014314339476
0.08 -2.36007120130132
0.088 -2.360129143838844
0.096 -2.3601881615005604
0.104 -2.3602482741955666
0.112 -2.360309502200147
0.12 -2.3603718661644817
0.128 -2.3604353871194905
0.136 -2.3605000864837886
0.144 -2.3605659860707724
0.152 -2.360633108095831
0.16 -2.3607014751836872
0.168 -2.3607711103758717
0.176 -2.3608420371383265
0.184 -2.36091427936915
0.192 -2.360987861406478
0.2 -2.3610628080365026
0.208 -2.3611391445016428
0.216 -2.361216896508848
0.224 -2.361296090238062
0.232 -2.361376752350834
0.24 -2.361458909999074
0.248 -2.3615425908339778
0.256 -2.3616278230151018
0.264 -2.3617146352196015
0.272 -2.3618030566516324
0.28 -2.361893117051919
0.288 -2.361984846707494
0.296 -2.3620782764616064
0.304 -2.3621734377238073
0.312 -2.3622703624802135
0.32 -2.3623690833039515
0.328 -2.362469633365786
0.336 -2.3625720464449333
0.344 -2.3626763569400686
0.352 -2.3627825998805236
0.36 -2.3628908109376807
0.368 -2.3630010264365677
0.376 -2.363113283367656
0.384 -2.3632276193988635
0.392 -2.3633440728877675
0.4 -2.3634626828940295
0.408 -2.3635834891920404
0.416 -2.363706532283779
0.424 -2.3638318534119
0.432 -2.363959494573047
0.44 -2.364089498531392
0.448 -2.364221908832417
0.456 -2.3643567698169243
0.464 -2.364494126635299
0.472 -2.364634025262006
0.48 -2.3647765125103453
0.488 -2.364921636047455
0.496 -2.3650694444095737
0.504 -2.3652199870175648
0.512 -2.3653733141927042
0.52 -2.3655294771727364
0.528 -2.3656885281282096
0.536 -2.3658505201790785
0.544 -2.3660155074116003
0.552 -2.3661835448955073
0.56 -2.366354688701476
0.568 -2.3665289959188867
0.576 -2.3667065246738828
0.584 -2.3668873341477377
0.592 -2.3670714845955243
0.6 -2.367259037365098
0.608 -2.3674500549164006
0.616 -2.3676446008410803
0.624 -2.3678427398824415
0.632 -2.3680445379557242
0.64 -2.3682500621687175
0.648 -2.368459380842717
0.656 -2.3686725635338246
0.664 -2.3688896810545974
0.672 -2.369110805496053
0.68 -2.3693360102500343
0.688 -2.3695653700319372
0.696 -2.3697989609038097
0.704 -2.3700368602978235
0.712 -2.3702791470401245
0.72 -2.3705259013750704
0.728 -2.3707772049898557
0.736 -2.3710331410395296
0.744 -2.3712937941724133
0.752 -2.371559250555929
0.76 -2.3718295979028237
0.768 -2.3721049254978253
0.776 -2.372385324224701
0.784 -2.3726708865937556
0.792 -2.3729617067697477
0.8 -2.3732578806002507
0.808 -2.373559505644442
0.816 -2.373866681202353
0.824 -2.3741795083445525
0.832 -2.3744980899422985
0.84 -2.3748225306981423
0.848 -2.3751529371770026
0.856 -2.375489417837704
0.864 -2.375832083064999
0.872 -2.376181045202061
0.88 -2.3765364185834694
0.888 -2.376898319568679
0.896 -2.3772668665759875
0.904 -2.3776421801170007
0.912 -2.3780243828316
0.92 -2.378413599523422
0.928 -2.378809957195846
0.936 -2.3792135850885026
0.944 -2.3796246147143014
0.952 -2.3800431798969854
0.96 -2.3804694168092158
0.968 -2.3809034640111864
0.976 -2.381345462489782
0.984 -2.381795555698275
0.992 -2.3822538895965635
1. -2.3827206126919633
1.0079999999999998 -2.3831958760805487
1.016 -2.3836798334890483
1.024 -2.384172641317299
1.0319999999999998 -2.3846744586812583
1.0399999999999998 -2.3851854474565846
1.0479999999999998 -2.3857057723227775
1.0559999999999998 -2.386235600807886
1.0639999999999998 -2.3867751033337936
1.0719999999999998 -2.387324453262061
1.0799999999999998 -2.3878838269403566
1.0879999999999996 -2.388453403749445
1.0959999999999999 -2.3890333661507657
1.1039999999999999 -2.3896238997345725
1.1119999999999999 -2.390225193268659
1.1199999999999999 -2.3908374387476528
1.1279999999999997 -2.391460831442886
1.136 -2.392095569952841
1.1439999999999997 -2.3927418562541685
1.152 -2.3933998957532774
1.16 -2.39406989733849
1.1679999999999997 -2.39475207343277
1.176 -2.3954466400470125
1.1839999999999997 -2.3961538168338916
1.192 -2.39687382714227
1.2 -2.39760689807216
1.2079999999999997 -2.3983532605302296
1.2159999999999997 -2.3991131492858564
1.2239999999999998 -2.3998868030277145
1.232 -2.4006744644208946
1.2399999999999998 -2.4014763801645445
1.2479999999999998 -2.4022928010500277
1.256 -2.403123982019592
1.2639999999999998 -2.403970182225528
1.2719999999999998 -2.404831665089827
1.2799999999999998 -2.4057086983643075
1.2879999999999998 -2.4066015541912167
1.2959999999999998 -2.4075105091642826
1.3039999999999998 -2.4084358443902096
1.3119999999999998 -2.4093778455506016
1.3199999999999998 -2.410336802964303
1.3279999999999998 -2.4113130116501353
1.3359999999999999 -2.4123067713900173
1.3439999999999996 -2.413318386792452
1.3519999999999999 -2.41434816735636
1.3599999999999997 -2.41539642753524
1.3679999999999999 -2.416463486801641
1.376 -2.4175496697119154
1.384 -2.418655305971244
1.392 -2.419780730498894
1.3999999999999997 -2.4209262834936993
1.408 -2.4220923104997296
1.4159999999999997 -2.4232791624721193
1.4239999999999997 -2.4244871958430387
1.4319999999999997 -2.4257167725877613
1.4399999999999997 -2.426968260290815
1.4479999999999997 -2.4282420322121694
1.4559999999999997 -2.4295384673534315
1.4639999999999997 -2.430857950524019
1.4719999999999998 -2.432200872407268
1.4799999999999998 -2.433567629626436
1.4879999999999998 -2.4349586248105717
1.4959999999999998 -2.436374266660195
1.5039999999999998 -2.437814970012757
1.5119999999999998 -2.43928115590783
1.5199999999999998 -2.44077325165198
1.5279999999999998 -2.4422916908832795
1.5359999999999998 -2.443836913635408
1.5439999999999998 -2.445409366401281
1.5519999999999998 -2.447009502196178
1.5599999999999998 -2.4486377806202824
1.5679999999999998 -2.450294667920604
1.5759999999999996 -2.4519806370522135
1.5839999999999996 -2.4536961677387237
1.5919999999999996 -2.4554417465319713
1.5999999999999996 -2.457217866870816
1.6079999999999997 -2.4590250291390063
1.6159999999999997 -2.4608637407220333
1.6239999999999999 -2.4627345160629086
1.6319999999999997 -2.464637876716787
1.64 -2.4665743514043728
1.6479999999999997 -2.4685444760640154
1.6559999999999997 -2.4705487939024295
1.6639999999999997 -2.4725878554439564
1.6719999999999997 -2.47466221857828
1.6799999999999997 -2.4767724486065115
1.6879999999999997 -2.4789191182855674
1.6959999999999995 -2.481102807870739
1.7039999999999997 -2.4833241051563677
1.7119999999999997 -2.4855836055145297
1.7199999999999998 -2.4878819119316478
1.7279999999999998 -2.490219635042912
1.7359999999999998 -2.4925973931644267
1.7439999999999996 -2.4950158123229773
1.7519999999999996 -2.4974755262833113
1.7599999999999998 -2.499977176572834
1.7679999999999998 -2.5025214125036026
1.7759999999999996 -2.505108891191523
1.7839999999999998 -2.5077402775726267
1.7919999999999998 -2.5104162444163194
1.8 -2.51313747233549
1.8079999999999996 -2.51590464979336
1.8159999999999998 -2.5187184731069627
1.8239999999999996 -2.5215796464471194
1.8319999999999996 -2.524488881834809
1.8399999999999999 -2.527446899133799
1.8479999999999996 -2.53045442603942
1.8559999999999997 -2.533512198063353
1.8639999999999999 -2.536620958514317
1.8719999999999999 -2.539781458474516
1.8799999999999997 -2.5429944567717344
1.8879999999999997 -2.5462607199469356
1.896 -2.54958102221726
1.9039999999999997 -2.552956145434269
1.9119999999999997 -2.5563868790373236
1.92 -2.5598740200019696
1.9279999999999995 -2.5634183727831883
1.9359999999999997 -2.567020749253401
1.9439999999999997 -2.57068196863509
1.9519999999999995 -2.57440285742791
1.9599999999999997 -2.578184249330178
1.9679999999999997 -2.582026985154595
1.9759999999999995 -2.5859319127380975
1.9839999999999995 -2.589899886845707
1.9919999999999998 -2.5939317690682615
2. -2.5980284277139103
2.0079999999999996 -2.6021907376932605
2.0159999999999996 -2.6064195803980605
2.024 -2.610715843573313
2.0319999999999996 -2.61508042118271
2.0399999999999996 -2.6195142132672897
2.048 -2.6240181257972197
2.0559999999999996 -2.6285930705165987
2.0639999999999996 -2.633239964781207
2.0719999999999996 -2.637959731389105
2.0799999999999996 -2.6427532984040023
2.0879999999999996 -2.6476215989713316
2.0959999999999996 -2.6525655711269445
2.1039999999999996 -2.6575861575983786
2.1119999999999997 -2.6626843055986322
2.1199999999999997 -2.6678609666123942
2.1279999999999997 -2.6731170961747006
2.1359999999999997 -2.6784536536419603
2.1439999999999997 -2.683871601955342
2.1519999999999992 -2.6893719073964917
2.1599999999999997 -2.6949555393355724
2.1679999999999997 -2.700623469971624
2.1759999999999997 -2.7063766740652477
2.1839999999999997 -2.7122161286636377
2.1919999999999997 -2.718142812817971
2.1999999999999997 -2.7241577072932115
2.2079999999999997 -2.7302617942703558
2.2159999999999997 -2.7364560570411887
2.2239999999999998 -2.7427414796956104
2.2319999999999993 -2.7491190468016202
2.2399999999999998 -2.755589743078037
2.2479999999999998 -2.76215455306007
2.2559999999999993 -2.768814460757847
2.264 -2.775570449308024
2.272 -2.782423500618626
2.28 -2.7893745950072537
2.2879999999999994 -2.7964247108328335
2.296 -2.8035748241210836
2.304 -2.8108259081838787
2.3119999999999994 -2.818178933232728
2.32 -2.8256348659865735
2.328 -2.833194669274139
2.3359999999999994 -2.8408593016310735
2.3439999999999994 -2.8486297168921437
2.352 -2.856506863778744
2.3599999999999994 -2.8644916854820055
2.3679999999999994 -2.8725851192417924
2.376 -2.8807880959219085
2.384 -2.889101539581811
2.3919999999999995 -2.8975263670451827
2.4 -2.9060634874656968
2.408 -2.914713801890334
2.4159999999999995 -2.9234782028206143
2.4239999999999995 -2.9323575737721335
2.432 -2.9413527888327726
2.4399999999999995 -2.950464712220007
2.4479999999999995 -2.9596941978377034
2.456 -2.969042088832832
2.4639999999999995 -2.978509217152523
2.4719999999999995 -2.9880964031018995
2.4799999999999995 -2.997804454903134
2.4879999999999995 -3.007634168256178
2.4959999999999996 -3.01758632590162
2.5039999999999996 -3.027661697186141
2.5119999999999996 -3.037861037631027
2.5199999999999996 -3.048185088504218
2.5279999999999996 -3.0586345763963636
2.536 -3.069210212801368
2.5439999999999996 -3.079912693701902
2.5519999999999996 -3.090742699160357
2.5599999999999996 -3.1017008929157384
2.5679999999999996 -3.112787921986955
2.5759999999999996 -3.124004416283008
2.583999999999999 -3.1353509882205253
2.5919999999999996 -3.146828232349149
2.5999999999999996 -3.158436724985206
2.6079999999999997 -3.1701770238541527
2.6159999999999997 -3.1820496677422305
2.6239999999999997 -3.194055176157788
2.6319999999999997 -3.206194049002709
2.6399999999999992 -3.218466766254371
2.6479999999999997 -3.230873787658558
2.6559999999999997 -3.243415552433737
2.6639999999999993 -3.256092478987089
2.6719999999999997 -3.2689049646426813
2.6799999999999997 -3.281853385382151
2.6879999999999993 -3.2949380955982512
2.6959999999999997 -3.308159427861601
2.7039999999999997 -3.3215176927009633
2.7119999999999993 -3.335013178397348
2.7199999999999993 -3.3486461507922396
2.7279999999999998 -3.3624168531102123
2.7359999999999998 -3.37632550579618
2.7439999999999993 -3.390372306367515
2.752 -3.404557429281249
2.76 -3.418881025816532
2.7679999999999993 -3.4333432239725385
2.7759999999999994 -3.447944128381944
2.784 -3.4626838202401107
2.7919999999999994 -3.477562357250084
2.7999999999999994 -3.492579773583467
2.808 -3.507736079857241
2.8159999999999994 -3.523031263126565
2.8239999999999994 -3.5384652868935587
2.8319999999999994 -3.554038091132055
2.8399999999999994 -3.5697495923282974
2.8479999999999994 -3.5855996835375112
2.8559999999999994 -3.6015882344562744
2.864 -3.6177150915105836
2.8719999999999994 -3.633980077959484
2.8799999999999994 -3.6503829940141244
2.888 -3.666923616972055
2.8959999999999995 -3.6836017013665883
2.9039999999999995 -3.700416979131005
2.9119999999999995 -3.717369159777368
2.9199999999999995 -3.7344579305897123
2.9279999999999995 -3.7516829568313113
2.9359999999999995 -3.7690438819657555
2.9439999999999995 -3.786540327891516
2.9519999999999995 -3.804171895189692
2.9599999999999995 -3.821938163384574
2.9679999999999995 -3.8398386912166886
2.9759999999999995 -3.857873016927947
2.9839999999999995 -3.8760406585585088
2.9919999999999995 -3.8943411142549706
3. -3.9127738625894657
3.0079999999999996 -3.931338362889255
3.0159999999999996 -3.9500340555763778
3.0239999999999996 -3.968860362516928
3.0319999999999996 -3.987816687379499
3.0399999999999996 -4.006902416002344
3.0479999999999996 -4.026116916768795
3.0559999999999996 -4.04545954099047
3.0639999999999996 -4.06492962329779
3.0719999999999996 -4.084526482037332
3.0799999999999996 -4.104249419675566
3.0879999999999996 -4.124097723208436
3.095999999999999 -4.144070664576376
3.1039999999999996 -4.164167501084224
3.1119999999999997 -4.184387475825582
3.1199999999999997 -4.204729818111144
3.1279999999999992 -4.2251937439004985
3.1359999999999997 -4.245778456236956
3.1439999999999997 -4.266483145684922
3.1519999999999992 -4.287306990769346
3.1599999999999997 -4.308249158416816
3.1679999999999997 -4.329308804397812
3.1759999999999993 -4.350485073769713
3.1839999999999993 -4.371777101320086
3.1919999999999997 -4.393184012009862
3.1999999999999993 -4.414704921415956
3.2079999999999993 -4.436338936172944
3.2159999999999997 -4.45808515441337
3.2239999999999993 -4.479942666206334
3.2319999999999993 -4.501910553993946
3.2399999999999998 -4.5239878930252955
3.2479999999999993 -4.546173751787593
3.2559999999999993 -4.568467192434111
3.2639999999999993 -4.5908672712086345
3.272 -4.613373038866058
3.2799999999999994 -4.635983541088862
3.2879999999999994 -4.65869781889915
3.296 -4.68151490906598
3.3039999999999994 -4.704433844507714
3.3119999999999994 -4.727453654689147
3.3199999999999994 -4.750573366013154
3.3279999999999994 -4.773792002206638
3.3359999999999994 -4.797108584700576
3.3439999999999994 -4.820522133003936
3.3519999999999994 -4.844031665071303
3.3599999999999994 -4.867636197664015
3.3679999999999994 -4.891334746704665
3.3759999999999994 -4.915126327624814
3.3839999999999995 -4.939009955705771
3.3919999999999995 -4.962984646412322
3.3999999999999995 -4.987049415719295
3.4079999999999995 -5.0112032804308555
3.4159999999999995 -5.035445258492446
3.423999999999999 -5.0597743692953
3.4319999999999995 -5.084189633973442
3.4399999999999995 -5.108690075693145
3.4479999999999995 -5.133274719934781
3.4559999999999995 -5.157942594767037
3.4639999999999995 -5.1826927311134705
3.4719999999999995 -5.207524163011396
3.4799999999999995 -5.2324359278630785
3.488 -5.257427066679266
3.495999999999999 -5.2824966243150415
3.503999999999999 -5.307643649698043
3.5119999999999996 -5.332867196049055
3.5199999999999996 -5.358166321095037
3.5279999999999996 -5.3835400872746035
3.5359999999999996 -5.408987561936016
3.544 -5.434507817527757
3.551999999999999 -5.46009993178174
3.559999999999999 -5.485762987889213
3.5679999999999996 -5.511496074669451
3.5759999999999996 -5.537298286731315
3.5839999999999996 -5.563168724627738
3.5919999999999996 -5.589106495003277
3.599999999999999 -5.61511071073477
3.607999999999999 -5.641180491065242
3.615999999999999 -5.667314961731138
3.6239999999999997 -5.6935132550829906
3.6319999999999997 -5.719774510199649
3.6399999999999997 -5.746097872996159
3.6479999999999992 -5.772482496325416
3.6559999999999993 -5.798927540073733
3.6639999999999993 -5.825432171250386
3.6719999999999993 -5.851995564071326
3.6799999999999997 -5.8786169000371284
3.6879999999999997 -5.905295368005329
3.6959999999999993 -5.9320301642572675
3.7039999999999993 -5.958820492559558
3.7119999999999993 -5.985665564220322
3.7199999999999993 -6.012564598140309
3.7279999999999998 -6.039516820859034
3.7359999999999998 -6.066521466596048
3.7439999999999998 -6.093577777287488
3.7519999999999993 -6.120685002618028
3.7599999999999993 -6.147842400048345
3.7679999999999993 -6.175049234838245
3.7759999999999994 -6.202304780065575
3.784 -6.2296083166410225
3.792 -6.256959133318966
3.799999999999999 -6.284356526704463
3.8079999999999994 -6.311799801256522
3.8159999999999994 -6.33928826928777
3.8239999999999994 -6.3668212509606406
3.8319999999999994 -6.394398074280195
3.84 -6.422018075083696
3.847999999999999 -6.44968059702706
3.855999999999999 -6.477384991568276
3.8639999999999994 -6.505130617947945
3.8719999999999994 -6.532916843166996
3.8799999999999994 -6.560743041961742
3.8879999999999995 -6.588608596776344
3.896 -6.616512897732805
3.903999999999999 -6.644455342598595
3.911999999999999 -6.672435336752008
3.9199999999999995 -6.70045229314534
3.9279999999999995 -6.728505632266011
3.9359999999999995 -6.7565947820956875
3.9439999999999995 -6.784719178067535
3.951999999999999 -6.812878263021671
3.959999999999999 -6.841071487158911
3.967999999999999 -6.869298307992897
3.9759999999999995 -6.897558190300687
3.9839999999999995 -6.9258506060719025
3.9919999999999995 -6.954175034456487
4. -6.9825309617111895
