0.3623577544766736 0.0001113089476853027
0.36448322862841803 0.00012367204678034212
0.36660870278016244 0.0001372359684243179
0.36873417693190685 0.00015209985362010905
0.37085965108365126 0.00016836948143687875
0.3729851252353957 0.00018615759722710826
0.3751105993871401 0.00020558424989160188
0.3772360735388845 0.00022677713808548809
0.3793615476906289 0.00024987196524137157
0.3814870218423733 0.00027501280326923156
0.38361249599411773 0.00030235246477616583
0.38573797014586214 0.00033205288363271154
0.38786344429760655 0.0003642855036965322
0.38998891844935096 0.00039923167548839005
0.3921143926010954 0.0004370830605999051
0.3942398667528398 0.0004780420435975152
0.3963653409045842 0.0005223221511722769
0.3984908150563286 0.0005701484782709151
0.400616289208073 0.0006217581209296762
0.40274176335981743 0.0006774006155191269
0.40486723751156184 0.0007373383840953142
0.40699271166330625 0.0008018471855402663
0.40911818581505066 0.0008712165721631601
0.41124365996679507 0.0009457503514223507
0.4133691341185395 0.001025767052417725
0.4154946082702839 0.0011116003967931993
0.4176200824220283 0.0012035997736795652
0.4197455565737727 0.001302130718299494
0.4218710307255171 0.0014075753938483778
0.42399650487726154 0.001520333076257566
0.42612197902900595 0.0016408206414395246
0.42824745318075036 0.0017694730546090277
0.43037292733249477 0.0019067438612689236
0.4324984014842392 0.0020531056794443336
0.4346238756359836 0.0022090506927458353
0.436749349787728 0.0023750911438381287
0.4388748239394724 0.002551759827889239
0.4410002980912168 0.0027396105855724507
0.44312577224296124 0.0029392187951931374
0.44525124639470565 0.0031511818635109753
0.44737672054645006 0.0033761197148295266
0.44950219469819447 0.0036146752779249816
0.4516276688499389 0.0038675149703878324
0.4537531430016833 0.0041353291799537395
0.4558786171534277 0.004418832742401482
0.4580040913051721 0.00471876541560066
0.4601295654569165 0.005035892349294374
0.46225503960866093 0.005371004550208089
0.46438051376040534 0.005724919342078796
0.46650598791214976 0.006098480820207248
0.46863146206389417 0.006492560300138557
0.4707569362156386 0.00690805676008601
0.472882410367383 0.007345897276718878
0.4750078845191274 0.007807037453941319
0.4771333586708718 0.008292461844300157
0.4792588328226162 0.008803184362664933
0.48138430697436063 0.009340248691834004
0.48350978112610504 0.009904728679729559
0.48563525527784945 0.010497728727852356
0.48776072942959386 0.011120384170679294
0.4898862035813383 0.011773861645694269
0.4920116777330827 0.012459359453756228
0.4941371518848271 0.013178107909515254
0.4962626260365715 0.013931369681602298
0.4983881001883159 0.014720440122326345
0.5005135743400604 0.015546647586625403
0.5026390484918049 0.016411353740029406
0.5047645226435493 0.01731595385540393
0.5068899967952938 0.01826187709825569
0.5090154709470383 0.019250586800393536
0.5111409450987827 0.02028358072174882
0.5132664192505272 0.021362391300173582
0.5153918934022717 0.022488585889044115
0.5175173675540161 0.023663766982512328
0.5196428417057606 0.02488957242825883
0.521768315857505 0.026167675627611738
0.5238937900092495 0.027499785722911278
0.526019264160994 0.028887647772007995
0.5281447383127384 0.030333042909798838
0.5302702124644829 0.03183778849671388
0.5323956866162274 0.033403738254080204
0.5345211607679718 0.03503278238630174
0.5366466349197163 0.036726847689803756
0.5387721090714608 0.03848789764870426
0.5408975832232052 0.04031793251718499
0.5430230573749497 0.04221898938854726
0.5451485315266942 0.044193142250946456
0.5472740056784386 0.04624250202981476
0.5493994798301831 0.04836921661698671
0.5515249539819276 0.050575470886558525
0.553650428133672 0.05286348669751844
0.5557759022854165 0.05523552288319887
0.557901376437161 0.05769387522760732
0.5600268505889054 0.06024087642870835
0.5621523247406499 0.06287889604873372
0.5642777988923944 0.06561034045160881
0.5664032730441388 0.06843765272759467
0.5685287471958833 0.07136331260525061
0.5706542213476278 0.07438983635083397
0.5727796954993722 0.07751977665525939
0.5749051696511167 0.08075572250875093
0.5770306438028612 0.08410029906332821
0.5791561179546056 0.08755616748326953
0.5812815921063501 0.09112602478371243
0.5834070662580946 0.09481260365755291
0.585532540409839 0.09861867229080772
0.5876580145615835 0.10254703416662406
0.589783488713328 0.10660052785810979
0.5919089628650724 0.11078202681018023
0.5940344370168169 0.11509443911061072
0.5961599111685614 0.11954070725049547
0.5982853853203058 0.12412380787432095
0.6004108594720503 0.12884675151985864
0.6025363336237948 0.1337125823480956
0.6046618077755392 0.13872437786341998
0.6067872819272837 0.1438852486242884
0.6089127560790282 0.14919833794459517
0.6110382302307726 0.15466682158598255
0.6131637043825171 0.16029390744132338
0.6152891785342616 0.16608283520960895
0.617414652686006 0.1720368760624917
0.6195401268377505 0.17815933230271724
0.621665600989495 0.18445353701469572
0.6237910751412394 0.19092285370746276
0.6259165492929839 0.1975706759502694
0.6280420234447284 0.2044004270010664
0.6301674975964728 0.2114155594281228
0.6322929717482173 0.21861955472504171
0.6344184458999618 0.2260159229194229
0.6365439200517062 0.23360820217543168
0.6386693942034507 0.24139995839052505
0.6407948683551952 0.2493947847866005
0.6429203425069396 0.2575963014958137
0.6450458166586841 0.2660081551413293
0.6471712908104286 0.2746340184132622
0.649296764962173 0.28347758964005465
0.6514222391139175 0.2925425923555605
0.653547713265662 0.3018327748620776
0.6556731874174064 0.311351909789584
0.6577986615691509 0.3211037936514474
0.6599241357208954 0.33109224639682466
0.6620496098726398 0.3413211109600381
0.6641750840243843 0.3517942528071519
0.6663005581761288 0.3625155594800007
0.6684260323278732 0.37348894013792694
0.6705515064796177 0.3847183250974388
0.6726769806313622 0.3962076653700722
0.6748024547831066 0.40796093219865065
0.6769279289348511 0.41998211659220624
0.6790534030865956 0.43227522885978426
0.68117887723834 0.44484429814336374
0.6833043513900845 0.45769337195011484
0.685429825541829 0.4708265156842256
0.6875552996935734 0.4842478121785158
0.6896807738453179 0.49796136122604856
0.6918062479970624 0.511971279111963
0.6939317221488068 0.5262816981457425
0.6960571963005513 0.5408967661941079
0.6981826704522958 0.5558206462147665
0.7003081446040402 0.5710575157911879
0.7024336187557847 0.5866115666686337
0.7045590929075292 0.6024870042916111
0.7066845670592736 0.6186880473429501
0.7088100412110181 0.6352189272846936
0.7109355153627626 0.6520838879009733
0.713060989514507 0.6692871848430549
0.7151864636662515 0.686833085176733
0.717311937817996 0.7047258669322289
0.7194374119697404 0.7229698186567755
0.7215628861214849 0.7415692389700445
0.7236883602732294 0.7605284361225657
0.7258138344249738 0.7798517275573148
0.7279393085767183 0.7995434394745881
0.7300647827284628 0.8196079064003408
0.7321902568802072 0.8400494707581134
0.7343157310319517 0.8608724824446858
0.7364412051836962 0.8820812984095937
0.7385666793354406 0.903680282238645
0.7406921534871851 0.9256738037415368
0.7428176276389296 0.9480662385437332
0.744943101790674 0.970861967682682
0.7470685759424185 0.9940653772085022
0.749194050094163 1.0176808577892535
0.7513195242459074 1.0417128043208803
0.7534449983976519 1.0661656155419412
0.7555704725493964 1.0910436936532144
0.7576959467011408 1.1163514439422728
0.7598214208528853 1.1420932744131205
0.7619468950046298 1.1682735954209602
0.7640723691563742 1.1948968193122036
0.7661978433081187 1.221967360069757
0.7683233174598632 1.2494896329636958
0.7704487916116076 1.2774680542073698
0.7725742657633521 1.3059070406190079
0.7746997399150966 1.3348110092889058
0.776825214066841 1.3641843772522053
0.7789506882185855 1.3940315611673892
0.78107616237033 1.4243569770004574
0.7832016365220744 1.45516503971491
0.7853271106738189 1.4864601629675118
0.7874525848255634 1.5182467588099335
0.7895780589773078 1.5505292373962765
0.7917035331290523 1.5833120066964852
0.7938290072807968 1.6165994722157597
0.7959544814325412 1.650396036719891
0.7980799555842857 1.6847060999666135
0.8002054297360301 1.7195340584429746
0.8023309038877746 1.7548843051087155
0.8044563780395191 1.7907612291456918
0.8065818521912635 1.8271692157133659
0.808707326343008 1.8641126457103225
0.8108328004947525 1.9015958955418644
0.812958274646497 1.9396233368936397
0.8150837487982414 1.978199336511369
0.8172092229499859 2.017328255986554
0.8193346971017303 2.0570144515483078
0.8214601712534748 2.097262273861127
0.8235856454052193 2.1380760678287443
0.8257111195569637 2.1794601724039624
0.8278365937087082 2.2214189204044534
0.8299620678604527 2.263956638334517
0.8320875420121971 2.3070776462128033
0.8342130161639416 2.350786257405914
0.8363384903156861 2.3950867784678778
0.8384639644674305 2.439983508985509
0.840589438619175 2.4854807414295683
0.8427149127709195 2.531582761011673
0.8448403869226639 2.5782938455470057
0.8469658610744084 2.625618265322688
0.8490913352261529 2.673560282971834
0.8512168093778973 2.7221241533532354
0.8533422835296418 2.771314123436592
0.8554677576813863 2.8211344321933205
0.8575932318331307 2.871589310492789
0.8597187059848752 2.9226829810040424
0.8618441801366197 2.97441965810286
0.8639696542883641 3.0268035477841737
0.8660951284401086 3.0798388475797416
0.8682206025918531 3.1335297464810514
0.8703460767435975 3.187880424867388
0.872471550895342 3.2428950544389905
0.8745970250470865 3.2985777981552395
0.8767224991988309 3.3549328101778855
0.8788479733505754 3.411964235819107
0.8809734475023199 3.4696762114945265
0.8830989216540643 3.528072864680921
0.8852243958058088 3.587158313878719
0.8873498699575533 3.646936668579156
0.8894753441092977 3.7074120292359862
0.8916008182610422 3.768588487241768
0.8937262924127867 3.8304701249085586
0.8958517665645311 3.893061015453033
0.8979772407162756 3.9563652229858772
0.9001027148680201 4.020386802505507
0.9022281890197645 4.085129799895841
0.904353663171509 4.150598251928283
0.9064791373232535 4.216796186267665
0.9086046114749979 4.283727621482195
0.9107300856267424 4.351396567057246
0.9128555597784869 4.419807023412965
0.9149810339302313 4.488962981925633
0.9171065080819758 4.558868424952644
0.9192319822337203 4.629527325861135
0.9213574563854647 4.700943649060023
0.9234829305372092 4.773121350035583
0.9256084046889537 4.846064375390302
0.9277338788406981 4.919776662885057
0.9298593529924426 4.99426214148447
0.9319848271441871 5.06952473140543
0.9341103012959315 5.145568344168628
0.936235775447676 5.222396882653059
0.9383612495994205 5.3000142411535105
0.9404867237511649 5.378424305440757
0.9426121979029094 5.457630952824611
0.9447376720546539 5.537638052219553
0.9468631462063983 5.618449464213039
0.9489886203581428 5.700069041136284
0.9511140945098873 5.782500627137485
0.9532395686616317 5.865748058257486
0.9553650428133762 5.9498151625076625
0.9574905169651207 6.034705759950036
0.9596159911168651 6.120423662779598
0.9617414652686096 6.206972675408661
0.9638669394203541 6.2943565945532205
0.9659924135720985 6.382579209321253
0.968117887723843 6.471644301302886
0.9702433618755875 6.561555644662291
0.9723688360273319 6.6523170062314225
0.9744943101790764 6.743932145605184
0.9766197843308209 6.836404815238424
0.9787452584825653 6.929738760544268
0.9808707326343098 7.023937719993875
0.9829962067860543 7.119005425217657
0.9851216809377987 7.2149456011077415
0.9872471550895432 7.311761965921656
0.9893726292412877 7.4094582313871555
0.9914981033930321 7.508038102808208
0.9936235775447766 7.6075052791719555
0.9957490516965211 7.707863453256685
0.9978745258482655 7.809116311740601
1.00000000000001 7.911267535311578
