0	0.00000109892	0.00000000716568
11	0.00000133113	0.00000000861419
22	0.00000155881	0.0000000100429
33	0.00000178195	0.0000000114516
44	0.00000200068	0.0000000128404
55	0.00000221537	0.0000000142092
66	0.00000242621	0.000000015558
77	0.00000263329	0.0000000168867
88	0.0000028367	0.0000000181954
99	0.00000303684	0.0000000194846
110	0.0000032348	0.0000000207556
121	0.00000343002	0.0000000220076
132	0.00000362268	0.0000000232409
143	0.00000381873	0.0000000245001
154	0.00000401461	0.0000000257584
165	0.00000421045	0.000000027016
176	0.00000440636	0.0000000282729
187	0.00000460423	0.0000000295447
198	0.00000480297	0.000000030822
209	0.00000500261	0.0000000321051
220	0.00000520312	0.0000000333937
231	0.00000540544	0.000000034695
242	0.00000560905	0.0000000360048
253	0.00000581393	0.000000037323
264	0.00000602012	0.0000000386497
275	0.00000622806	0.0000000399885
286	0.00000643748	0.0000000413372
297	0.00000664841	0.0000000426958
308	0.00000686082	0.0000000440643
319	0.00000707496	0.0000000454446
330	0.0000072907	0.0000000468355
341	0.00000750804	0.0000000482371
352	0.00000772697	0.0000000496493
363	0.0000079476	0.0000000510731
374	0.00000816987	0.0000000525079
385	0.00000839377	0.0000000539537
396	0.00000861932	0.0000000554105
407	0.00000884654	0.0000000568787
418	0.00000907542	0.000000058358
429	0.00000930595	0.0000000598485
440	0.00000953813	0.0000000613501
451	0.00000977196	0.0000000628629
462	0.0000100074	0.0000000643868
473	0.0000102445	0.0000000659219
484	0.0000104833	0.0000000674681
495	0.0000107236	0.0000000690252
506	0.0000109656	0.0000000705934
517	0.0000112092	0.0000000721726
528	0.0000114545	0.0000000737629
539	0.0000117012	0.0000000753638
550	0.0000119496	0.0000000769757
561	0.0000121996	0.0000000785985
572	0.0000124512	0.0000000802322
583	0.0000127042	0.0000000818763
594	0.0000129589	0.0000000835311
605	0.0000132151	0.0000000851965
616	0.0000134728	0.0000000868727
627	0.000013732	0.000000088559
638	0.0000139928	0.0000000902559
649	0.000014255	0.0000000919632
660	0.0000145188	0.0000000936809
671	0.000014784	0.0000000954086
682	0.0000150507	0.0000000971466
693	0.0000153188	0.0000000988948
704	0.0000155884	0.000000100653
715	0.0000158594	0.000000102421
726	0.0000161318	0.000000104199
737	0.0000164056	0.000000105987
748	0.0000166809	0.000000107785
759	0.0000169575	0.000000109592
770	0.0000172354	0.000000111409
781	0.0000175148	0.000000113236
792	0.0000177955	0.000000115072
803	0.0000180775	0.000000116917
814	0.0000183608	0.000000118772
825	0.0000186455	0.000000120636
836	0.0000189315	0.00000012251
847	0.0000192187	0.000000124392
858	0.0000195072	0.000000126283
869	0.000019797	0.000000128184
880	0.000020088	0.000000130094
891	0.0000203803	0.000000132012
902	0.0000206738	0.000000133939
913	0.0000209685	0.000000135875
924	0.0000212644	0.00000013782
935	0.0000215615	0.000000139772
946	0.0000218597	0.000000141734
957	0.0000221591	0.000000143703
968	0.0000224597	0.000000145682
979	0.0000227614	0.000000147668
990	0.0000230642	0.000000149663
1001	0.0000233682	0.000000151665
1045	0.0000245949	0.000000159757
1089	0.0000258385	0.000000167972
1133	0.0000270981	0.000000176306
1177	0.000028373	0.000000184755
1221	0.0000296624	0.000000193315
1265	0.0000309656	0.00000020198
1309	0.0000322817	0.000000210745
1353	0.0000336101	0.000000219607
1397	0.0000349499	0.00000022856
1441	0.0000363005	0.000000237601
1485	0.0000376611	0.000000246724
1529	0.0000390309	0.000000255925
1573	0.0000404094	0.000000265199
1617	0.0000417958	0.000000274544
1661	0.0000431893	0.000000283954
1705	0.0000445893	0.000000293424
1749	0.0000459952	0.00000030295
1793	0.0000474063	0.00000031253
1837	0.0000488218	0.000000322157
1881	0.0000502411	0.000000331827
1925	0.0000516638	0.000000341538
1969	0.0000530889	0.000000351285
2013	0.0000545161	0.000000361063
2057	0.0000559446	0.000000370869
2101	0.0000573739	0.000000380699
2145	0.0000588032	0.000000390549
2189	0.0000602322	0.000000400415
2233	0.0000616602	0.000000410293
2277	0.0000630865	0.00000042018
2321	0.0000645108	0.000000430072
2365	0.0000659324	0.000000439965
2409	0.0000673507	0.000000449855
2453	0.0000687654	0.000000459739
2497	0.0000701758	0.000000469613
2541	0.0000715814	0.000000479475
2585	0.0000729818	0.00000048932
2629	0.0000743764	0.000000499144
2673	0.0000757647	0.000000508946
2717	0.0000771464	0.00000051872
2761	0.000078521	0.000000528465
2805	0.0000798879	0.000000538177
2849	0.0000812467	0.000000547851
2893	0.0000825971	0.000000557486
2937	0.0000839385	0.000000567079
2981	0.0000852707	0.000000576626
3025	0.000086593	0.000000586123
3069	0.0000879052	0.000000595569
3113	0.000089207	0.000000604961
3157	0.0000904977	0.000000614294
3201	0.0000917773	0.000000623567
3245	0.0000930452	0.000000632777
3289	0.0000943013	0.00000064192
3333	0.0000955448	0.000000650994
3377	0.0000967758	0.000000659997
3421	0.0000979939	0.000000668925
3465	0.0000991985	0.000000677777
3509	0.00010039	0.000000686549
3553	0.000101567	0.000000695239
3597	0.00010273	0.000000703845
3641	0.000103878	0.000000712364
3685	0.00010501	0.000000720794
3729	0.000106128	0.000000729132
3773	0.000107229	0.000000737375
3817	0.000108315	0.000000745523
3861	0.000109384	0.000000753572
3905	0.000110437	0.000000761521
3949	0.000111473	0.000000769367
3993	0.000112492	0.000000777108
4037	0.000113493	0.000000784742
4081	0.000114478	0.000000792267
4125	0.000115444	0.000000799681
4169	0.000116393	0.000000806983
4213	0.000117324	0.000000814169
4257	0.000118237	0.000000821238
4301	0.000119131	0.000000828187
4345	0.000120007	0.000000835018
4389	0.000120864	0.00000084173
4433	0.000121702	0.000000848313
4477	0.000122521	0.000000854769
4521	0.000123321	0.000000861104
4565	0.000124102	0.000000867312
4609	0.000124863	0.000000873387
4653	0.000125603	0.000000879328
4697	0.000126321	0.000000885134
4741	0.000127019	0.00000089081
4785	0.000127696	0.000000896351
4829	0.00012835	0.000000901753
4873	0.000128983	0.000000907016
4917	0.000129594	0.000000912142
4961	0.000130182	0.000000917124
5005	0.000130749	0.000000921964
5049	0.000131293	0.000000926662
5093	0.000131816	0.000000931219
5137	0.000132315	0.000000935627
5181	0.000132793	0.000000939891
5225	0.000133247	0.000000944008
5269	0.000133679	0.000000947976
5313	0.000134088	0.000000951793
5357	0.000134474	0.00000095546
5401	0.000134837	0.000000958978
5445	0.000135177	0.000000962342
5489	0.000135494	0.000000965558
5533	0.000135788	0.000000968618
5577	0.00013606	0.000000971526
5621	0.000136308	0.00000097428
5665	0.000136532	0.000000976877
5709	0.000136734	0.000000979322
5753	0.000136913	0.000000981613
5797	0.000137069	0.000000983747
5841	0.000137201	0.000000985718
5885	0.00013731	0.000000987535
5929	0.000137397	0.000000989199
5973	0.000137459	0.000000990701
6017	0.000137499	0.000000992048
6061	0.000137515	0.000000993237
6105	0.000137507	0.000000994266
6149	0.000137477	0.000000995139
6193	0.000137423	0.000000995851
6237	0.000137345	0.000000996403
6281	0.000137245	0.000000996795
6325	0.000137121	0.000000997033
6369	0.000136975	0.000000997114
6413	0.000136806	0.000000997034
6457	0.000136614	0.000000996795
6501	0.000136399	0.000000996396
6545	0.000136162	0.000000995843
6589	0.000135902	0.000000995133
6633	0.00013562	0.000000994264
6677	0.000135316	0.000000993235
6721	0.000134989	0.000000992053
6765	0.000134641	0.000000990714
6809	0.000134271	0.000000989216
6853	0.000133879	0.000000987564
6897	0.000133465	0.000000985756
6941	0.00013303	0.000000983794
6985	0.000132575	0.000000981682
7029	0.000132098	0.000000979414
7073	0.0001316	0.000000976992
7117	0.000131082	0.00000097442
7161	0.000130544	0.000000971697
7205	0.000129985	0.000000968824
7249	0.000129406	0.0000009658
7293	0.000128808	0.000000962626
7337	0.00012819	0.000000959302
7381	0.000127552	0.000000955833
7425	0.000126896	0.000000952222
7469	0.000126221	0.000000948464
7513	0.000125527	0.000000944554
7557	0.000124815	0.000000940506
7601	0.000124086	0.000000936319
7645	0.000123338	0.00000093199
7689	0.000122573	0.000000927519
7733	0.00012179	0.000000922906
7777	0.000120991	0.000000918156
7821	0.000120175	0.000000913274
7865	0.000119343	0.000000908257
7909	0.000118494	0.000000903101
7953	0.00011763	0.000000897814
7997	0.000116751	0.000000892397
8041	0.000115857	0.00000088685
8085	0.000114949	0.000000881179
8129	0.000114025	0.000000875377
8173	0.000113088	0.00000086945
8217	0.000112138	0.000000863402
8261	0.000111174	0.000000857228
8305	0.000110197	0.000000850933
8349	0.000109208	0.000000844522
8393	0.000108206	0.000000837992
8437	0.000107193	0.000000831345
8481	0.000106168	0.000000824585
8525	0.000105133	0.000000817716
8569	0.000104087	0.000000810731
8613	0.000103031	0.000000803639
8657	0.000101965	0.000000796444
8701	0.00010089	0.000000789142
8745	0.0000998062	0.000000781736
8789	0.0000987139	0.00000077423
8833	0.0000976138	0.000000766625
8877	0.0000965061	0.000000758923
8921	0.0000953914	0.000000751127
8965	0.00009427	0.000000743237
9009	0.0000931426	0.000000735256
9053	0.0000920096	0.000000727187
9097	0.0000908715	0.000000719032
9141	0.0000897287	0.000000710792
9185	0.0000885816	0.00000070247
9229	0.0000874309	0.000000694069
9273	0.0000862771	0.00000068559
9317	0.0000851206	0.000000677036
9361	0.0000839619	0.00000066841
9405	0.0000828017	0.000000659714
9449	0.0000816403	0.00000065095
9493	0.0000804783	0.00000064212
9537	0.0000793163	0.000000633228
9581	0.0000781548	0.000000624275
9625	0.0000769939	0.000000615265
9669	0.0000758338	0.000000606201
9713	0.000074675	0.000000597084
9757	0.0000735178	0.000000587917
9801	0.0000723584	0.000000578705
9845	0.0000711938	0.000000569448
9889	0.0000700246	0.000000560151
9933	0.0000688512	0.000000550816
9977	0.0000676738	0.000000541447
10021	0.0000664928	0.000000532045
10065	0.0000653087	0.000000522614
10109	0.0000641219	0.000000513158
10153	0.0000629328	0.000000503679
10197	0.0000617418	0.000000494181
10241	0.0000605492	0.000000484666
10285	0.0000593555	0.000000475138
10329	0.000058161	0.0000004656
10373	0.0000569663	0.000000456056
10417	0.0000557711	0.000000446509
10461	0.0000545759	0.000000436961
10505	0.000053381	0.000000427418
10549	0.000052187	0.00000041788
10593	0.0000509942	0.000000408353
10637	0.0000498031	0.00000039884
10681	0.0000486141	0.000000389345
10725	0.0000474277	0.00000037987
10769	0.0000462442	0.000000370419
10813	0.0000450642	0.000000360997
10857	0.0000438882	0.000000351607
10901	0.0000427165	0.000000342252
10945	0.0000415496	0.000000332936
10989	0.000040388	0.000000323662
11033	0.0000392323	0.000000314436
11077	0.0000380828	0.00000030526
11121	0.00003694	0.000000296139
11165	0.0000358044	0.000000287075
11209	0.0000346765	0.000000278074
11253	0.0000335569	0.000000269138
11297	0.000032446	0.000000260273
11341	0.0000313442	0.000000251482
11385	0.0000302521	0.000000242769
11429	0.0000291702	0.000000234138
11473	0.0000280992	0.000000225594
11517	0.0000270393	0.00000021714
11561	0.0000259912	0.00000020878
11605	0.0000249553	0.000000200519
11649	0.0000239322	0.000000192361
11693	0.0000229226	0.000000184311
11737	0.0000219268	0.000000176372
11781	0.0000209454	0.000000168549
11825	0.000019979	0.000000160846
11869	0.0000190281	0.000000153268
11913	0.0000180932	0.000000145819
11957	0.000017175	0.000000138503
12001	0.000016274	0.000000131325
12045	0.0000153907	0.00000012429
12089	0.0000145257	0.000000117402
12133	0.0000136796	0.000000110665
12177	0.0000128529	0.000000104083
12221	0.0000120462	0.0000000976631
12265	0.0000112601	0.000000091408
12309	0.0000104953	0.0000000853228
12353	0.00000975217	0.0000000794122
12397	0.00000903143	0.0000000736809
12441	0.00000833361	0.0000000681333
12485	0.00000765934	0.0000000627743
12529	0.00000700921	0.0000000576086
12573	0.00000638381	0.000000052641
12617	0.00000578375	0.000000047876
12661	0.00000520963	0.0000000433184
12705	0.00000466206	0.0000000389729
12749	0.00000414164	0.0000000348441
12793	0.00000364899	0.0000000309365
12837	0.00000318473	0.0000000272546
12881	0.00000274945	0.0000000238028
12925	0.00000234378	0.000000020585
12969	0.00000196832	0.0000000176051
13013	0.00000162368	0.0000000148662
13057	0.00000131048	0.000000012371
13101	0.00000102932	0.0000000101205
13145	0.000000780802	0.00000000811434
13189	0.000000565524	0.00000000634895
13233	0.000000384068	0.00000000481622
13277	0.000000237003	0.00000000350101
13321	0.000000124871	0.00000000237785
13365	0.0000000481686	0.00000000140789
13409	0.00000000729315	0.000000000538781