0	0.000010736	0.000000076499
2	0.0000113369	0.0000000808667
4	0.0000119297	0.000000085166
6	0.0000125144	0.000000089397
8	0.0000130893	0.0000000935596
10	0.0000136542	0.0000000976537
12	0.000014209	0.000000101679
14	0.0000147541	0.000000105637
16	0.0000152894	0.000000109525
18	0.0000158152	0.000000113346
20	0.0000163315	0.000000117097
22	0.0000168383	0.000000120781
24	0.0000173358	0.000000124395
26	0.0000178241	0.000000127942
28	0.0000183031	0.00000013142
30	0.0000187729	0.000000134829
32	0.0000192336	0.000000138169
34	0.0000196852	0.000000141442
36	0.0000201276	0.000000144645
38	0.000020561	0.00000014778
40	0.0000209854	0.000000150847
42	0.0000214007	0.000000153845
44	0.0000218237	0.000000156908
46	0.000022242	0.000000159936
48	0.0000226554	0.000000162929
50	0.000023064	0.000000165886
52	0.0000234679	0.000000168809
54	0.000023867	0.000000171696
56	0.0000242613	0.000000174548
58	0.0000246581	0.000000177423
60	0.000025052	0.000000180277
62	0.0000254429	0.00000018311
64	0.0000258309	0.000000185922
66	0.000026216	0.000000188713
68	0.0000265982	0.000000191484
70	0.0000269775	0.000000194234
72	0.0000273576	0.000000196993
74	0.0000277358	0.000000199739
76	0.000028112	0.000000202472
78	0.0000284862	0.000000205192
80	0.0000288586	0.000000207898
82	0.000029229	0.000000210591
84	0.0000295974	0.000000213271
86	0.0000299662	0.000000215955
88	0.0000303335	0.000000218631
90	0.0000306996	0.000000221297
92	0.0000310642	0.000000223955
94	0.0000314275	0.000000226605
96	0.0000317894	0.000000229245
98	0.0000321509	0.000000231878
100	0.0000325125	0.000000234512
110	0.0000343072	0.000000247598
120	0.000036085	0.000000260579
130	0.0000378493	0.000000273478
140	0.0000396046	0.000000286319
150	0.0000413528	0.000000299123
160	0.0000430947	0.000000311894
170	0.0000448328	0.000000324647
180	0.0000465682	0.000000337391
190	0.0000483014	0.000000350131
200	0.0000500334	0.000000362872
210	0.000051765	0.000000375619
220	0.0000534966	0.000000388377
230	0.0000552287	0.000000401147
240	0.0000569616	0.000000413931
250	0.0000586955	0.000000426732
260	0.0000604308	0.000000439551
270	0.0000621676	0.000000452388
280	0.000063906	0.000000465245
290	0.0000656461	0.000000478121
300	0.0000673879	0.000000491016
310	0.0000691316	0.000000503931
320	0.0000708771	0.000000516865
330	0.0000726244	0.000000529817
340	0.0000743734	0.000000542787
350	0.0000761242	0.000000555774
360	0.0000778766	0.000000568777
370	0.0000796306	0.000000581796
380	0.0000813863	0.00000059483
390	0.0000831434	0.000000607876
400	0.0000849018	0.000000620935
410	0.0000866616	0.000000634005
420	0.0000884224	0.000000647084
430	0.0000901844	0.000000660172
440	0.0000919473	0.000000673267
450	0.0000937111	0.000000686368
460	0.0000954756	0.000000699473
470	0.0000972408	0.000000712581
480	0.0000990064	0.00000072569
490	0.000100772	0.0000007388
500	0.000102539	0.000000751908
510	0.000104305	0.000000765013
520	0.000106072	0.000000778115
530	0.000107838	0.00000079121
540	0.000109605	0.000000804299
550	0.000111371	0.000000817379
560	0.000113136	0.000000830445
570	0.000114901	0.0000008435
580	0.000116666	0.000000856543
590	0.00011843	0.000000869573
600	0.000120193	0.000000882587
610	0.000121955	0.000000895582
620	0.000123715	0.000000908555
630	0.000125474	0.000000921502
640	0.000127233	0.000000934436
650	0.000128991	0.000000947345
660	0.000130745	0.000000960219
670	0.0001325	0.000000973078
680	0.000134253	0.000000985905
690	0.000136003	0.000000998699
700	0.000137752	0.00000101146
710	0.000139499	0.00000102419
720	0.000141244	0.00000103689
730	0.000142986	0.00000104955
740	0.000144724	0.00000106217
750	0.000146458	0.00000107475
760	0.000148187	0.00000108729
770	0.000149911	0.00000109979
780	0.00015163	0.00000111226
790	0.000153344	0.00000112467
800	0.000155053	0.00000113704
810	0.000156755	0.00000114936
820	0.000158452	0.00000116163
830	0.000160144	0.00000117385
840	0.000161829	0.00000118602
850	0.000163508	0.00000119814
860	0.00016518	0.0000012102
870	0.000166846	0.00000122221
880	0.000168506	0.00000123416
890	0.000170158	0.00000124605
900	0.000171803	0.00000125788
910	0.000173441	0.00000126965
920	0.000175071	0.00000128136
930	0.000176694	0.00000129301
940	0.00017831	0.00000130459
950	0.000179917	0.00000131611
960	0.000181517	0.00000132756
970	0.000183109	0.00000133895
980	0.000184692	0.00000135026
990	0.000186267	0.0000013615
1000	0.000187833	0.00000137267
1032	0.000192785	0.00000140791
1064	0.000197644	0.00000144238
1096	0.000202403	0.00000147601
1128	0.000207061	0.00000150879
1160	0.000211612	0.00000154069
1192	0.000216053	0.00000157166
1224	0.000220379	0.00000160168
1256	0.000224585	0.00000163071
1288	0.000228668	0.00000165872
1320	0.000232625	0.00000168571
1352	0.000236451	0.00000171162
1384	0.000240145	0.00000173645
1416	0.000243703	0.00000176016
1448	0.000247122	0.00000178273
1480	0.000250398	0.00000180415
1512	0.000253529	0.00000182439
1544	0.000256509	0.00000184344
1576	0.000259336	0.00000186128
1608	0.000262008	0.00000187789
1640	0.000264523	0.00000189327
1672	0.00026688	0.0000019074
1704	0.000269076	0.00000192025
1736	0.00027111	0.00000193184
1768	0.000272981	0.00000194214
1800	0.000274687	0.00000195116
1832	0.000276228	0.00000195888
1864	0.000277601	0.00000196529
1896	0.000278808	0.00000197041
1928	0.000279847	0.00000197423
1960	0.000280717	0.00000197674
1992	0.00028142	0.00000197795
2024	0.000281954	0.00000197785
2056	0.000282319	0.00000197645
2088	0.000282516	0.00000197376
2120	0.000282546	0.00000196978
2152	0.000282408	0.00000196453
2184	0.000282105	0.00000195801
2216	0.000281635	0.00000195022
2248	0.000281002	0.00000194119
2280	0.000280206	0.00000193093
2312	0.000279248	0.00000191944
2344	0.00027813	0.00000190676
2376	0.000276854	0.00000189288
2408	0.000275422	0.00000187784
2440	0.000273835	0.00000186165
2472	0.000272096	0.00000184435
2504	0.000270208	0.00000182594
2536	0.000268172	0.00000180645
2568	0.000265992	0.00000178592
2600	0.00026367	0.00000176436
2632	0.000261209	0.00000174181
2664	0.000258614	0.00000171831
2696	0.000255885	0.00000169387
2728	0.00025303	0.00000166855
2760	0.000250048	0.00000164236
2792	0.000246946	0.00000161536
2824	0.000243726	0.00000158757
2856	0.000240393	0.00000155905
2888	0.000236953	0.00000152983
2920	0.000233408	0.00000149997
2952	0.000229764	0.0000014695
2984	0.000226025	0.00000143847
3016	0.000222196	0.00000140695
3048	0.000218283	0.00000137497
3080	0.00021429	0.0000013426
3112	0.000210224	0.00000130989
3144	0.000206089	0.00000127691
3176	0.000201892	0.00000124371
3208	0.000197638	0.00000121037
3240	0.000193334	0.00000117695
3272	0.000188985	0.00000114353
3304	0.000184597	0.00000111016
3336	0.000180179	0.00000107694
3368	0.000175736	0.00000104395
3400	0.000171275	0.00000101127
3432	0.000166803	0.000000978983
3464	0.000162327	0.000000947185
3496	0.000157854	0.000000915965
3528	0.000153393	0.000000885421
3560	0.000148949	0.000000855652
3592	0.000144532	0.00000082676
3624	0.000140149	0.000000798847
3656	0.000135809	0.000000772015
3688	0.000131518	0.000000746366
3720	0.000127286	0.000000721999
3752	0.000123122	0.000000699008
3784	0.000119033	0.000000677481
3816	0.000115029	0.000000657493
3848	0.000111119	0.00000063911
3880	0.000107311	0.00000062238
3912	0.000103614	0.00000060733
3944	0.00010004	0.000000593972
3976	0.0000965955	0.000000582287
4008	0.0000932917	0.000000572235
4040	0.0000901381	0.000000563752
4072	0.0000871445	0.000000556748
4104	0.0000843209	0.000000551114
4136	0.0000816777	0.000000546723
4168	0.0000792249	0.000000543433
4200	0.000076973	0.000000541093
4232	0.0000749326	0.000000539549
4264	0.0000731143	0.000000538647
4296	0.0000715285	0.00000053824
4328	0.0000701862	0.000000538189
4360	0.0000690981	0.000000538371
4392	0.0000682749	0.000000538683
4424	0.0000677273	0.000000539043
4456	0.0000674652	0.000000539392
4488	0.0000674622	0.000000539701
4520	0.000067491	0.000000539932
4552	0.0000675095	0.00000054008
4584	0.0000675174	0.000000540143
4616	0.0000675148	0.000000540122
4648	0.0000675016	0.000000540016
4680	0.0000674779	0.000000539826
4712	0.0000674437	0.000000539552
4744	0.000067399	0.000000539195
4776	0.0000673438	0.000000538753
4808	0.0000672782	0.000000538228
4840	0.0000672021	0.000000537619
4872	0.0000671156	0.000000536927
4904	0.0000670187	0.000000536152
4936	0.0000669114	0.000000535293
4968	0.0000667938	0.000000534352
5000	0.0000666658	0.000000533328
5032	0.0000665276	0.000000532222
5064	0.0000663791	0.000000531034
5096	0.0000662205	0.000000529765
5128	0.0000660515	0.000000528413
5160	0.0000658726	0.000000526982
5192	0.0000656835	0.000000525469
5224	0.0000654845	0.000000523877
5256	0.0000652754	0.000000522204
5288	0.0000650563	0.000000520451
5320	0.0000648275	0.00000051862
5352	0.0000645888	0.000000516711
5384	0.0000643404	0.000000514723
5416	0.0000640822	0.000000512657
5448	0.0000638144	0.000000510515
5480	0.0000635371	0.000000508297
5512	0.0000632502	0.000000506002
5544	0.000062954	0.000000503632
5576	0.0000626483	0.000000501187
5608	0.0000623335	0.000000498668
5640	0.0000620094	0.000000496075
5672	0.0000616763	0.00000049341
5704	0.000061334	0.000000490672
5736	0.0000609829	0.000000487863
5768	0.0000606229	0.000000484983
5800	0.0000602541	0.000000482033
5832	0.0000598767	0.000000479014
5864	0.0000594907	0.000000475926
5896	0.0000590962	0.00000047277
5928	0.0000586933	0.000000469547
5960	0.0000582823	0.000000466259
5992	0.0000578629	0.000000462904
6024	0.0000574356	0.000000459486
6056	0.0000570003	0.000000456004
6088	0.0000565572	0.000000452459
6120	0.0000561063	0.000000448851
6152	0.0000556478	0.000000445184
6184	0.0000551819	0.000000441457
6216	0.0000547086	0.000000437671
6248	0.000054228	0.000000433826
6280	0.0000537403	0.000000429925
6312	0.0000532457	0.000000425968
6344	0.0000527441	0.000000421956
6376	0.0000522359	0.000000417891
6408	0.0000517211	0.000000413772
6440	0.0000511998	0.000000409602
6472	0.0000506722	0.000000405382
6504	0.0000501384	0.000000401112
6536	0.0000495987	0.000000396795
6568	0.000049053	0.00000039243
6600	0.0000485016	0.000000388019
6632	0.0000479447	0.000000383563
6664	0.0000473823	0.000000379065
6696	0.0000468147	0.000000374525
6728	0.0000462419	0.000000369943
6760	0.0000456642	0.000000365322
6792	0.0000450818	0.000000360663
6824	0.0000444947	0.000000355967
6856	0.0000439032	0.000000351236
6888	0.0000433074	0.000000346469
6920	0.0000427074	0.000000341671
6952	0.0000421036	0.00000033684
6984	0.0000414961	0.000000331981
7016	0.0000408849	0.000000327092
7048	0.0000402704	0.000000322177
7080	0.0000396526	0.000000317235
7112	0.0000390317	0.000000312269
7144	0.0000384082	0.000000307281
7176	0.0000377819	0.000000302272
7208	0.0000371532	0.000000297244
7240	0.0000365223	0.000000292197
7272	0.0000358893	0.000000287134
7304	0.0000352543	0.000000282055
7336	0.0000346178	0.000000276964
7368	0.0000339799	0.000000271862
7400	0.0000333406	0.000000266748
7432	0.0000327004	0.000000261628
7464	0.0000320593	0.0000002565
7496	0.0000314175	0.000000251367
7528	0.0000307755	0.000000246232
7560	0.0000301332	0.000000241095
7592	0.000029491	0.000000235958
7624	0.0000288491	0.000000230824
7656	0.0000282076	0.000000225694
7688	0.0000275668	0.000000220569
7720	0.000026927	0.000000215451
7752	0.0000262884	0.000000210344
7784	0.000025651	0.000000205247
7816	0.0000250155	0.000000200164
7848	0.0000243818	0.000000195096
7880	0.0000237502	0.000000190045
7912	0.0000231209	0.000000185012
7944	0.0000224943	0.00000018
7976	0.0000218705	0.000000175012
8008	0.0000212498	0.000000170048
8040	0.0000206325	0.000000165111
8072	0.0000200187	0.000000160203
8104	0.0000194089	0.000000155326
8136	0.0000188032	0.000000150482
8168	0.0000182017	0.000000145672
8200	0.000017605	0.0000001409
8232	0.0000170131	0.000000136167
8264	0.0000164264	0.000000131475
8296	0.0000158451	0.000000126827
8328	0.0000152696	0.000000122225
8360	0.0000147	0.00000011767
8392	0.0000141366	0.000000113165
8424	0.0000135797	0.000000108712
8456	0.0000130297	0.000000104314
8488	0.0000124868	0.000000099973
8520	0.0000119511	0.0000000956902
8552	0.0000114231	0.0000000914688
8584	0.0000109031	0.0000000873105
8616	0.0000103912	0.0000000832184
8648	0.00000988789	0.0000000791941
8680	0.00000939332	0.0000000752402
8712	0.00000890786	0.0000000713591
8744	0.00000843179	0.0000000675531
8776	0.0000079654	0.0000000638247
8808	0.00000750897	0.000000060176
8840	0.00000706284	0.0000000566097
8872	0.00000662728	0.0000000531281
8904	0.0000062026	0.0000000497336
8936	0.00000578913	0.0000000464287
8968	0.00000538714	0.0000000432158
9000	0.00000499697	0.0000000400975
9032	0.00000461892	0.0000000370761
9064	0.0000042533	0.0000000341542
9096	0.00000390043	0.0000000313344
9128	0.00000356061	0.0000000286191
9160	0.00000323419	0.0000000260109
9192	0.00000292145	0.0000000235123
9224	0.00000262273	0.0000000211259
9256	0.00000233835	0.0000000188542
9288	0.00000206862	0.0000000166998
9320	0.00000181389	0.0000000146653
9352	0.00000157445	0.0000000127532
9384	0.00000135064	0.0000000109662
9416	0.00000114278	0.00000000930668
9448	0.000000951201	0.00000000777738
9480	0.000000776218	0.00000000638077
9512	0.000000618157	0.00000000511937
9544	0.000000477339	0.00000000399563
9576	0.00000035408	0.00000000301185
9608	0.000000248697	0.00000000217015
9640	0.000000161496	0.00000000147209
9672	0.0000000927755	0.000000000918017
9704	0.0000000428194	0.000000000504837
9736	0.0000000118783	0.000000000219339
9768	0.00000000012161	0.0000000000209799